cuvette empty,,air,,Baseline 100%T,,air#,,empty cuvette against air,,70uL naoh x5 in cuvette against air1,,200uL naoh x5 in cuvette against air2,,300uL naoh x5 in cuvette against air3,,600uL naoh x5 in cuvette against air4,,3ul x24 urd in 600uL naoh x5 in cuvette against air5,,500uL naoh x5 in cuvette against air,,3ul x25 ura in 500uL naoh x5 in cuvette against air1,,3ul x25 ura in 500uL naoh x5 in cuvette against air2,,3ul x24 urd in 600uL naoh x5 in cuvette against air5,,
Wavelength (nm),Abs,Wavelength (nm),Abs,Wavelength (nm),Abs,Wavelength (nm),Abs,Wavelength (nm),Abs,Wavelength (nm),Abs,Wavelength (nm),Abs,Wavelength (nm),Abs,Wavelength (nm),Abs,Wavelength (nm),Abs,Wavelength (nm),Abs,Wavelength (nm),Abs,Wavelength (nm),Abs,Wavelength (nm),Abs,
400,0.0005713683786,400,-0.1389269829,400,-0.01149772387,400,-0.0003399567504,400,0.1382182986,400,0.1359595507,400,0.3446183503,400,0.06831350178,400,0.06802821159,400,0.06755269319,400,0.0657626465,400,0.06565035135,349,0.1114307866,400,0.06755269319,
399,-0.0001447819668,399,-0.1385674328,399,-0.01304786839,399,-0.0004699383862,399,0.1395206898,399,0.1363666505,399,0.3462561965,399,0.06832759082,399,0.06895472854,399,0.06909822673,399,0.06574083865,399,0.06555099785,348,0.09002446383,399,0.06909822673,
398,-0.0007617251249,398,-0.1391348392,398,-0.01353221014,398,0.0007345138583,398,0.1391864419,398,0.1370654553,398,0.346978128,398,0.07115476578,398,0.06934370846,398,0.0707166642,398,0.06683107466,398,0.06678976864,347,0.09078021348,398,0.0707166642,
397,0.0004331587697,397,-0.1393984258,397,-0.01270369068,397,-0.001605943544,397,0.1393804252,397,0.1374776661,397,0.3460125625,397,0.07052969187,397,0.06913787127,397,0.06921363622,397,0.06676653028,397,0.0655965507,346,0.09016149491,397,0.06921363622,
396,8.506962331E-5,396,-0.1402396858,396,-0.01284027845,396,-0.0002114886302,396,0.1401560158,396,0.1380397975,396,0.3474740386,396,0.06935947388,396,0.06875576824,396,0.06907322258,396,0.0666494742,396,0.06641166657,345,0.09002013505,396,0.06907322258,
395,0.0003417515545,395,-0.139605701,395,-0.01174606849,395,-0.00191325671,395,0.1389445513,395,0.1377348453,395,0.3459828496,395,0.06952343136,395,0.06830141693,395,0.06823989004,395,0.06553546339,395,0.06511276215,344,0.09114918113,395,0.06823989004,
394,0.0002230907994,394,-0.1400033981,394,-0.01325184386,394,9.490832599E-5,394,0.1412121207,394,0.1390336305,394,0.3491830528,394,0.07095699757,394,0.06957352906,394,0.07074058056,394,0.06790101528,394,0.06694536656,343,0.09025555104,394,0.07074058056,
393,0.000264557515,393,-0.1404503435,393,-0.01352036651,393,-0.0005755812163,393,0.1408967674,393,0.1389432251,393,0.349026233,393,0.07131602615,393,0.07067922503,393,0.07065355033,393,0.06787123531,393,0.06804141402,342,0.09255940467,393,0.07065355033,
392,0.000109848057,392,-0.139652878,392,-0.0136390375,392,-0.0003955644788,392,0.141196847,392,0.139057532,392,0.3491186202,392,0.073052302,392,0.07196176052,392,0.07064733654,392,0.0674848929,392,0.06752051413,341,0.09332199395,392,0.07064733654,
391,-0.0002651984105,391,-0.1401783228,391,-0.014543036,391,0.0006627980038,391,0.1411620677,391,0.1413528472,391,0.3511867523,391,0.07219284773,391,0.07202918828,391,0.07233898342,391,0.06898142397,391,0.06865370274,340,0.09413932264,391,0.07233898342,
390,0.001173597411,390,-0.1406739503,390,-0.01313567813,390,-0.0005918157403,390,0.1399609596,390,0.1393343359,390,0.3508411646,390,0.07140309364,390,0.07058127224,390,0.0706462115,390,0.06771303713,390,0.06797078252,339,0.09260422736,390,0.0706462115,
389,0.001889378997,389,-0.1413737684,389,-0.01469666418,389,-0.0002627666108,389,0.1430069059,389,0.1416001767,389,0.3512032628,389,0.07294138521,389,0.07112442702,389,0.07067167014,389,0.06896273792,389,0.0699031353,338,0.09364562482,389,0.07067167014,
388,0.0006888280041,388,-0.1400787681,388,-0.01456596609,388,0.0001575187925,388,0.1404608637,388,0.141773358,388,0.3517564833,388,0.07306614518,388,0.07107597589,388,0.07212126255,388,0.06960902363,388,0.06927833706,337,0.09434321523,388,0.07212126255,
387,0.001717976527,387,-0.1406098008,387,-0.01394321956,387,-0.0008129898924,387,0.1397840381,387,0.1405129433,387,0.3525303006,387,0.07271099836,387,0.07110089064,387,0.07116251439,387,0.06855978817,387,0.06788249314,336,0.09552856535,387,0.07116251439,
386,0.0008757764008,386,-0.1419957727,386,-0.01388977189,386,-0.0008610450896,386,0.1417307854,386,0.1405369788,386,0.3499211669,386,0.07351367921,386,0.07281674445,386,0.07205534726,386,0.07021783292,386,0.06826657802,335,0.09365404397,386,0.07205534726,
385,0.002805373166,385,-0.1430956423,385,-0.01574098691,385,0.0002644539054,385,0.1440643072,385,0.1425467432,385,0.353882581,385,0.07417798787,385,0.07255448401,385,0.07317391038,385,0.07050316781,385,0.0704549402,334,0.09545248747,385,0.07317391038,
384,0.002885287162,384,-0.1419305503,384,-0.01516097318,384,0.00100849662,384,0.1432991028,384,0.1398706138,384,0.353517592,384,0.07327367365,384,0.07266705483,384,0.07305628061,384,0.06911161542,384,0.07071386278,333,0.09652570635,384,0.07305628061,
383,0.002934097545,383,-0.1429289281,383,-0.01476632711,383,-0.001307084458,383,0.1424021274,383,0.1402078271,383,0.3527975976,383,0.07353293896,383,0.07271470129,383,0.07322915643,383,0.06752481312,383,0.06914597005,332,0.09749406576,383,0.07322915643,
382,0.001293894253,382,-0.1419546753,382,-0.015705036,382,-0.0002100397251,382,0.1455811113,382,0.1408398747,382,0.3527922928,382,0.07310412824,382,0.0744895637,382,0.07319643348,382,0.06956216693,382,0.06984557956,331,0.09652411938,382,0.07319643348,
381,0.001909632469,381,-0.1439068168,381,-0.01600233652,381,-0.001146321418,381,0.1431514323,381,0.1418101788,381,0.3524166942,381,0.07231611013,381,0.07218483835,381,0.07571983337,381,0.06998804212,381,0.07014983147,330,0.09756139666,381,0.07571983337,
380,0.002153243171,380,-0.141055271,380,-0.01606685109,380,0.0006341771805,380,0.1442469507,380,0.1427246928,380,0.3510167003,380,0.07296263427,380,0.07274050266,380,0.07467797399,380,0.07016815245,380,0.07018543035,329,0.09795722365,380,0.07467797399,
379,0.003938101698,379,-0.1428965628,379,-0.01690442115,379,-0.0005722204805,379,0.1457597911,379,0.1435040832,379,0.3517961204,379,0.07466494292,379,0.07364872843,379,0.07270316035,379,0.06967004389,379,0.07057533413,328,0.0989908427,379,0.07270316035,
378,0.00237733894,378,-0.1430526674,378,-0.01675042696,378,-0.0006542149349,378,0.1440798491,378,0.1430606991,378,0.3523423672,378,0.07477457821,378,0.07572374493,378,0.07342688739,378,0.07048413903,378,0.07125422359,327,0.100247331,378,0.07342688739,
377,0.0007908629486,377,-0.1429832429,377,-0.01618238539,377,-0.0009793518111,377,0.1447414011,377,0.1427054554,377,0.3499125838,377,0.07360211015,377,0.0738087371,377,0.07418179512,377,0.07051729411,377,0.07006298006,326,0.1010657549,377,0.07418179512,
376,0.0004255666572,376,-0.144062683,376,-0.01807557419,376,-0.0003777707752,376,0.1455636919,376,0.1455328614,376,0.3525365293,376,0.07618868351,376,0.07599307597,376,0.07578344643,376,0.07199887931,376,0.0718453452,325,0.1012914255,376,0.07578344643,
375,0.001377919223,375,-0.1455073208,375,-0.0176702477,375,0.0002623299661,375,0.1459735185,375,0.1451670825,375,0.3529790044,375,0.07689201087,375,0.07494170219,375,0.07444660366,375,0.07260689139,375,0.07245730609,324,0.1022903994,375,0.07444660366,
374,0.002833590144,374,-0.1456618607,374,-0.01872758567,374,0.002012735,374,0.1474361271,374,0.148030743,374,0.3509429991,374,0.07714979351,374,0.07705958188,374,0.07718519866,374,0.07276663929,374,0.07246611267,323,0.1025959328,374,0.07718519866,
373,0.003113671904,373,-0.143333286,373,-0.01847084798,373,0.001222319552,373,0.1512770951,373,0.1483584642,373,0.351159215,373,0.07859626412,373,0.07786353678,373,0.0779016614,373,0.07436835021,373,0.07549182326,322,0.1036399752,373,0.0779016614,
372,0.007434614468,372,-0.1437915415,372,-0.01657798886,372,-0.001185511006,372,0.1501283348,372,0.1451427191,372,0.3451656997,372,0.07736255974,372,0.076332964,372,0.07620531321,372,0.07226141542,372,0.07322759181,321,0.1045800149,372,0.07620531321,
371,0.004182696342,371,-0.1442331225,371,-0.01813059673,371,-0.001084406045,371,0.1499011815,371,0.1444865763,371,0.3475287855,371,0.07721268386,371,0.07569400966,371,0.07779850811,371,0.07281591743,371,0.07165687531,320,0.1058333442,371,0.07779850811,
370,0.002661085455,370,-0.1467041671,370,-0.01851599663,370,-0.002814501757,370,0.1487896889,370,0.1454312801,370,0.3492628932,370,0.07493573427,370,0.07653943449,370,0.07589268684,370,0.07302838564,370,0.07252833247,319,0.1056886688,370,0.07589268684,
369,0.003737846157,369,-0.1447458118,369,-0.01890898682,369,-0.004428180866,369,0.1489347219,369,0.1474883258,369,0.3487470448,369,0.07578011602,369,0.07612106949,369,0.07666387409,369,0.07428184897,369,0.07266013324,318,0.1069825962,369,0.07666387409,
368,0.008094914258,368,-0.1415528506,368,-0.01254799776,368,0.0002801506198,368,0.1462894678,368,0.14461191,368,0.3088341355,368,0.0727506578,368,0.0729791373,368,0.07445026189,368,0.07189118862,368,0.07040066272,317,0.1074209213,368,0.07445026189,
367,0.006065330468,367,-0.1470239758,367,-0.02095308527,367,0.002593529876,367,0.1506247669,367,0.1500513852,367,0.3111054301,367,0.08189272881,367,0.07642931491,367,0.07583408803,367,0.071572043,367,0.0724702701,316,0.1089460105,367,0.07583408803,
366,0.0008691622061,366,-0.1478173882,366,-0.02101164125,366,0.003587819403,366,0.1492547989,366,0.1461530328,366,0.3116789162,366,0.07629488409,366,0.07806330174,366,0.07795165479,366,0.07157631218,366,0.07239145786,315,0.1090893522,366,0.07795165479,
365,0.0002622522588,365,-0.1469021738,365,-0.01960844547,365,0.001039114199,365,0.1457957923,365,0.1464954019,365,0.308730334,365,0.07414343953,365,0.07191862166,365,0.07544393092,365,0.07086900622,365,0.07508605719,314,0.1109944135,365,0.07544393092,
364,-0.0002935511875,364,-0.1471489519,364,-0.02222368307,364,0.00149507774,364,0.1491553783,364,0.1488811076,364,0.3113755584,364,0.0786601156,364,0.07707006484,364,0.08004853874,364,0.07607088238,364,0.07490869612,313,0.1120521352,364,0.08004853874,
363,0.001368778525,363,-0.150187999,363,-0.02294262871,363,0.0008893682389,363,0.1532419771,363,0.1491634399,363,0.3169126511,363,0.07647123933,363,0.07462783903,363,0.07549970597,363,0.07360450923,363,0.07245809585,312,0.1140073538,363,0.07549970597,
362,-0.0003597694449,362,-0.1466909349,362,-0.01999926195,362,0.001236623153,362,0.1476791948,362,0.1470503807,362,0.3110035956,362,0.07802076638,362,0.07604192197,362,0.07855184376,362,0.07507196814,362,0.07346913218,311,0.116399385,362,0.07855184376,
361,0.003923029639,361,-0.1466314793,361,-0.01956162974,361,-0.003689086996,361,0.1500404924,361,0.1458531171,361,0.3047076166,361,0.07472919673,361,0.07191453129,361,0.07274683565,361,0.06591907889,361,0.07015491277,310,0.1169037595,361,0.07274683565,
360,0.002121350495,360,-0.1521650851,360,-0.02181644924,360,-0.003622758435,360,0.149644047,360,0.1439964324,360,0.3077474833,360,0.07316165417,360,0.07029920816,360,0.07426934689,360,0.07137029618,360,0.0744677484,309,0.120830968,360,0.07426934689,
359,-0.0003445608309,359,-0.1471118778,359,-0.02754282206,359,0.003333490342,359,0.1531368494,359,0.1530357897,359,0.3135044575,359,0.08082967252,359,0.08067943901,359,0.08162792772,359,0.0748078227,359,0.08055853844,308,0.1197898015,359,0.08162792772,
358,-0.001385637443,358,-0.1530662477,358,-0.02566311695,358,-0.0004505444667,358,0.1555950791,358,0.1548754573,358,0.3070505857,358,0.08322622627,358,0.07673504204,358,0.07582440972,358,0.0751568079,358,0.07204777002,307,0.1226557344,358,0.07582440972,
357,0.001616321155,357,-0.1479152143,357,-0.02480869368,357,-0.001061579329,357,0.151726678,357,0.1528034359,357,0.3067691922,357,0.07701519877,357,0.07498785108,357,0.07697118819,357,0.07404602319,357,0.07719437778,306,0.128592521,357,0.07697118819,
356,0.001243009348,356,-0.1454597265,356,-0.01997731067,356,-0.005814445205,356,0.1374983788,356,0.1424447149,356,0.2993732989,356,0.07601392269,356,0.07759357244,356,0.07302513719,356,0.06971605122,356,0.06317087263,305,0.1354789883,356,0.07302513719,
355,-0.002853438258,355,-0.1568717659,355,-0.03069966473,355,0.005581995472,355,0.1538043469,355,0.1543087363,355,0.3182373345,355,0.0826632902,355,0.08200214058,355,0.076459907,355,0.08239676803,355,0.07513058931,304,0.1430528611,355,0.076459907,
354,-0.006783029996,354,-0.1534281522,354,-0.02692898177,354,-0.002235650085,354,0.1430568099,354,0.135319531,354,0.3024862111,354,0.07028929144,354,0.07681717724,354,0.0749309659,354,0.07515712082,354,0.06972128153,303,0.1537216604,354,0.0749309659,
353,-0.006373907905,353,-0.1498542577,353,-0.02262763306,353,-0.006042983383,353,0.1470070928,353,0.1477376074,353,0.2959913313,353,0.06632815301,353,0.06694436818,353,0.07124201953,353,0.07173409313,353,0.0633399114,302,0.1666398942,353,0.07124201953,
352,-0.005485957023,352,-0.1543391496,352,-0.0266510956,352,-0.01198455226,352,0.1426364183,352,0.1515022069,352,0.3041073382,352,0.06736308336,352,0.07132340223,352,0.07198702544,352,0.06221170723,352,0.06878982484,301,0.1816667616,352,0.07198702544,
351,-0.004653761629,351,-0.1532050073,351,-0.03359477967,351,0.002439654665,351,0.1612550318,351,0.1511455625,351,0.3005755246,351,0.08247335255,351,0.07302571833,351,0.07403831929,351,0.075960733,351,0.07329990715,300,0.1994917542,351,0.07403831929,
350,-0.001895422,350,-0.1490513384,350,-0.03271093965,350,0.002227859572,350,0.1384620667,350,0.1522009671,350,0.3041053116,350,0.06347893924,350,0.07801500708,350,0.07325703651,350,0.07281077653,350,0.07220797986,299,0.2181421518,350,0.07325703651,
349,-0.01329271775,349,-0.1660768539,349,-0.03848113865,349,-0.001092100749,349,0.1507198066,349,0.139193207,349,0.3014133573,349,0.06828475744,349,0.08788553625,349,0.07794874161,349,0.07180353254,349,0.06138668582,298,0.2370269597,349,0.07794874161,
348,0.04975962266,348,-0.1429176778,348,-0.01667864062,348,0.000167436825,348,0.1927136034,348,0.1933239102,348,0.2312523127,348,0.09315072745,348,0.09200699627,348,0.0942601338,348,0.0897461623,348,0.09129478037,297,0.2551971972,348,0.0942601338,
347,0.05131836981,347,-0.1421434432,347,-0.01665049046,347,0.000537803222,347,0.1930558234,347,0.1949743778,347,0.2300655991,347,0.0940291211,347,0.09287006408,347,0.09463329613,347,0.09223777056,347,0.09173858166,296,0.2722990215,347,0.09463329613,
346,0.05144103616,346,-0.1411881447,346,-0.01541157998,346,0.0001414898579,346,0.1913100481,346,0.1939264238,346,0.2307723761,346,0.09295964241,346,0.09245155752,346,0.09440156817,346,0.090721488,346,0.09007086605,295,0.2907258272,346,0.09440156817,
345,0.05282697827,345,-0.1413543969,345,-0.01485879347,345,-0.0009272285388,345,0.1934751272,345,0.1935074925,345,0.23127608,345,0.09261800349,345,0.09215339273,345,0.09292639792,345,0.08929240704,345,0.08902442455,294,0.307258904,345,0.09292639792,
344,0.05248934031,344,-0.1418590397,344,-0.01572011597,344,-0.0002017083898,344,0.1948531866,344,0.1956906766,344,0.2321219295,344,0.09286025912,344,0.09413520992,344,0.09404506534,344,0.09072387964,344,0.09065838903,293,0.3243331313,344,0.09404506534,
343,0.05251104385,343,-0.142120719,343,-0.01526575163,343,0.0001207230453,343,0.1949654222,343,0.194890812,343,0.2321578115,343,0.09329491109,343,0.09341853857,343,0.09365471452,343,0.09112932533,343,0.09105569869,292,0.3412464559,343,0.09365471452,
342,0.05213643238,342,-0.1420475543,342,-0.01642038859,342,0.0008160188445,342,0.1952018291,342,0.1972302347,342,0.2313050479,342,0.09510552883,342,0.09539540857,342,0.09524098784,342,0.09264712781,342,0.09249579161,291,0.357521832,342,0.09524098784,
341,0.05359113216,341,-0.1420733184,341,-0.01670354977,341,0.001299710013,341,0.1963870823,341,0.197605446,341,0.2323216945,341,0.09644731134,341,0.09538660944,341,0.09674084187,341,0.09272114933,341,0.09368587285,290,0.3737277985,341,0.09674084187,
340,0.05282443762,340,-0.1415602863,340,-0.01675112359,340,0.0008347699768,340,0.1975591779,340,0.197760269,340,0.232962355,340,0.09585520625,340,0.09518641979,340,0.09642604738,340,0.09189944714,340,0.0931436047,289,0.3863591552,340,0.09642604738,
339,0.05354228616,339,-0.1410472244,339,-0.0159817785,339,0.0007627264131,339,0.1967270374,339,0.1974339932,339,0.2331616729,339,0.0953732878,339,0.09508393705,339,0.09709759057,339,0.09222150594,339,0.09358461201,288,0.3985408545,339,0.09709759057,
338,0.05484928191,338,-0.1429544538,338,-0.01600797474,338,-7.226761227E-5,338,0.1975927949,338,0.1979613751,338,0.23467049,338,0.09595373273,338,0.09594808519,338,0.0962543264,338,0.09399261326,338,0.0940322727,287,0.409799397,338,0.0962543264,
337,0.05527780578,337,-0.1415997148,337,-0.0166184511,337,2.267670061E-5,337,0.1971398294,337,0.1992542744,337,0.2350010425,337,0.09868387133,337,0.09791787714,337,0.09875544906,337,0.0943749994,337,0.09434241056,286,0.4168782532,337,0.09875544906,
336,0.05550918356,336,-0.1428653002,336,-0.01654155925,336,0.0006111315452,336,0.1986254752,336,0.1999783218,336,0.2361638397,336,0.09807348996,336,0.09710853547,336,0.09855169058,336,0.09536632895,336,0.09593532979,285,0.425377965,336,0.09855169058,
335,0.05598711967,335,-0.1421536356,335,-0.01540363487,335,-0.0001384161005,335,0.1978769749,335,0.200060755,335,0.2345841974,335,0.09704592824,335,0.09701491892,335,0.09829685837,335,0.09472204745,335,0.09491667897,284,0.4309104979,335,0.09829685837,
334,0.05720392242,334,-0.1430462748,334,-0.01570174098,334,0.0006855352549,334,0.1989632994,334,0.2005151808,334,0.2361090481,334,0.09807900339,334,0.09817832708,334,0.09926491976,334,0.09512267262,334,0.09533598274,283,0.4352898598,334,0.09926491976,
333,0.05702123046,333,-0.1426392347,333,-0.01702510938,333,0.001242542057,333,0.2015770674,333,0.2022302449,333,0.2369179577,333,0.1002814695,333,0.09906227887,333,0.1000732109,333,0.09648103267,333,0.09816388786,282,0.4384222031,333,0.1000732109,
332,0.05751374736,332,-0.1418587863,332,-0.01650662348,332,0.0004692554066,332,0.2013358474,332,0.2022983283,332,0.2364113778,332,0.1003767997,332,0.09970899671,332,0.1012894958,332,0.09756185114,332,0.09807507694,281,0.4400121868,332,0.1012894958,
331,0.05860047042,331,-0.1423742473,331,-0.01594929025,331,-2.272728489E-5,331,0.2009566724,331,0.2016934156,331,0.2379076034,331,0.09990460426,331,0.09943047911,331,0.1007218286,331,0.09720239043,331,0.09784808755,280,0.4415505528,331,0.1007218286,
330,0.05899395794,330,-0.1422534138,330,-0.01596186683,330,0.001068643993,330,0.202658996,330,0.2028270364,330,0.2383702099,330,0.1006735861,330,0.09991522133,330,0.1010465845,330,0.09733062983,330,0.09840288758,279,0.4421888292,330,0.1010465845,
329,0.06057123467,329,-0.1429629028,329,-0.01608336531,329,7.748361531E-5,329,0.2032867968,329,0.203047514,329,0.238178134,329,0.101154916,329,0.09993930161,329,0.1025410593,329,0.09915935993,329,0.09850420058,278,0.4425855279,329,0.1025410593,
328,0.06067505106,328,-0.1429563463,328,-0.01679166965,328,0.0003808460024,328,0.2045616806,328,0.2057582289,328,0.2406918406,328,0.1021562591,328,0.1025257483,328,0.103184998,328,0.1010022834,328,0.1001044363,277,0.4437189102,328,0.103184998,
327,0.06178202108,327,-0.1418063045,327,-0.01644705795,327,0.0003547049128,327,0.2045746595,327,0.2051068395,327,0.2407180071,327,0.1045309156,327,0.1018525735,327,0.1039153263,327,0.1001230851,327,0.1002028286,276,0.4452315867,327,0.1039153263,
326,0.06327196211,326,-0.1427510828,326,-0.01647572033,326,-0.0003848573251,326,0.2060710192,326,0.2069693506,326,0.2427206784,326,0.1043644175,326,0.1032401547,326,0.1046295539,326,0.1013793871,326,0.1017966792,275,0.4458578229,326,0.1046295539,
325,0.06417144835,325,-0.1429369748,325,-0.01596116833,325,-0.0006325028953,325,0.2069561779,325,0.2077457756,325,0.242708236,325,0.1038182303,325,0.1043827161,325,0.1050425917,325,0.1019218639,325,0.1008510441,274,0.4465683997,325,0.1050425917,
324,0.06428867579,324,-0.1428860873,324,-0.01673767529,324,0.001432845602,324,0.2085438371,324,0.2097784579,324,0.2437978387,324,0.1049162373,324,0.1049754694,324,0.1065672785,324,0.1019801646,324,0.1031151488,273,0.4486156106,324,0.1065672785,
323,0.06556758285,323,-0.1433268785,323,-0.01642442681,323,0.0009059435688,323,0.2087328434,323,0.2092353553,323,0.2444562912,323,0.1064207703,323,0.1051310226,323,0.1072849259,323,0.1037884429,323,0.1026496366,272,0.4495010078,323,0.1072849259,
322,0.06679408997,322,-0.1426623762,322,-0.01635876857,322,3.414493403E-5,322,0.2095731497,322,0.2104910314,322,0.2445030212,322,0.1066591367,322,0.1057296842,322,0.1072266996,322,0.10373611,322,0.1036974564,271,0.4501070082,322,0.1072266996,
321,0.06724263728,321,-0.14280352,321,-0.0165558625,321,0.0008372857701,321,0.2104550153,321,0.2123447061,321,0.2453516424,321,0.1076680273,321,0.106889613,321,0.1086528972,321,0.1049172282,321,0.1048553288,270,0.4512954652,321,0.1086528972,
320,0.06812937558,320,-0.1426146328,320,-0.01669084653,320,0.0005166805349,320,0.2118424922,320,0.2125058025,320,0.2479949892,320,0.1075593755,320,0.1076577082,320,0.1074227095,320,0.105210267,320,0.104795225,269,0.4524997771,320,0.1074227095,
319,0.06900537014,319,-0.1426725537,319,-0.0170382522,319,0.0005893054185,319,0.2127150297,319,0.2138789743,319,0.2471169978,319,0.109869346,319,0.1092851683,319,0.1100709885,319,0.1066818386,319,0.1069568694,268,0.4549932778,319,0.1100709885,
318,0.06968411058,318,-0.1431299448,318,-0.01664301753,318,3.756216393E-5,318,0.2134520411,318,0.2141608,318,0.2495913655,318,0.1103312522,318,0.109291397,318,0.1110484302,318,0.106846042,318,0.1068648472,267,0.4576997161,318,0.1110484302,
317,0.07163446397,317,-0.1428625435,317,-0.01634550653,317,0.0002336060279,317,0.2133875489,317,0.2152218819,317,0.2494475842,317,0.1113180816,317,0.1104127914,317,0.1124494225,317,0.107404314,317,0.1082833484,266,0.4602349699,317,0.1124494225,
316,0.07177396864,316,-0.1422007233,316,-0.01606251113,316,-6.031011799E-5,316,0.2150010765,316,0.215375796,316,0.2505382597,316,0.1126466244,316,0.1102717891,316,0.1121500134,316,0.1090254262,316,0.1092660278,265,0.4636603892,316,0.1121500134,
315,0.0730035156,315,-0.1423612386,315,-0.01569235325,315,-0.0002452779445,315,0.2155476362,315,0.2169964314,315,0.2501510978,315,0.1125285774,315,0.1103694662,315,0.1129869074,315,0.10896644,315,0.1092818752,264,0.4667243659,315,0.1129869074,
314,0.07466924191,314,-0.1430995613,314,-0.01617575064,314,0.0001257204567,314,0.2176173031,314,0.2182156444,314,0.2517047822,314,0.1133413985,314,0.113872245,314,0.1143722087,314,0.1096836329,314,0.1118029878,263,0.470705986,314,0.1143722087,
313,0.07621450722,313,-0.1430689543,313,-0.01603706554,313,0.0001028571278,313,0.2181623429,313,0.2196254283,313,0.2528200448,313,0.1146221235,313,0.1133449897,313,0.1150949895,313,0.1116928682,313,0.1130102053,262,0.4747853577,313,0.1150949895,
312,0.07824636251,312,-0.1424669325,312,-0.01622487977,312,0.0007516019396,312,0.2201565504,312,0.2205681056,312,0.254265517,312,0.1172323748,312,0.1148633137,312,0.1174437329,312,0.1130035296,312,0.1146458238,261,0.4775904417,312,0.1174437329,
311,0.07858475298,311,-0.1419517249,311,-0.01616622508,311,-5.503008288E-5,311,0.2213866562,311,0.2217020243,311,0.2550244331,311,0.1179485172,311,0.1161279827,311,0.1178537309,311,0.1139915064,311,0.1163900122,260,0.4813320935,311,0.1178537309,
310,0.08084264398,310,-0.1423626095,310,-0.01537015568,310,-0.0003464748734,310,0.2217802703,310,0.2224275023,310,0.2568330467,310,0.1167240217,310,0.1172302365,310,0.1177436262,310,0.1143563837,310,0.1179184914,259,0.4830659628,310,0.1177436262,
309,0.08184055984,309,-0.142401889,309,-0.01627185754,309,-0.0007029596018,309,0.2240270972,309,0.2242134511,309,0.2586296797,309,0.1202707216,309,0.1190750524,309,0.1208126098,309,0.1164327189,309,0.1213340834,258,0.4861566722,309,0.1208126098,
308,0.07580354065,308,-0.1443334967,308,-0.01797907241,308,-0.000401512807,308,0.2199342847,308,0.2214557827,308,0.2516208291,308,0.1165749282,308,0.1159165129,308,0.1177137867,308,0.1134232953,308,0.1197741851,257,0.4883261025,308,0.1177137867,
307,0.07812378556,307,-0.1427229196,307,-0.01696083695,307,-0.0003025016049,307,0.2215105295,307,0.2224407643,307,0.252253145,307,0.1171233058,307,0.1163789406,307,0.1175289601,307,0.1138111129,307,0.1228126734,256,0.4910745621,307,0.1175289601,
306,0.07956020534,306,-0.1440548003,306,-0.01706269383,306,0.0002854088962,306,0.2226794809,306,0.2245431244,306,0.254680723,306,0.1189726368,306,0.1174922511,306,0.1201359704,306,0.1149444282,306,0.1279142648,255,0.494425714,306,0.1201359704,
305,0.08104849607,305,-0.1444256157,305,-0.01759274676,305,-4.348624861E-5,305,0.2247707993,305,0.2264765203,305,0.2565984428,305,0.1210372448,305,0.119502306,305,0.122741133,305,0.1172873378,305,0.1354449391,254,0.4970731735,305,0.122741133,
304,0.08210651577,304,-0.143705532,304,-0.01743332669,304,-0.0003881160519,304,0.2262133062,304,0.2281597257,304,0.2576942146,304,0.1221742332,304,0.1216600388,304,0.1240909547,304,0.1187144518,304,0.1442251951,253,0.5011835694,304,0.1240909547,
303,0.08449631184,303,-0.1431073397,303,-0.01691746898,303,-0.0002515905071,303,0.2284712493,303,0.2288330644,303,0.2590586543,303,0.1239049807,303,0.122576125,303,0.1250602156,303,0.1203717366,303,0.1537438929,252,0.5031678081,303,0.1250602156,
302,0.08669485897,302,-0.1431152374,302,-0.01721538231,302,-9.923546168E-5,302,0.229841873,302,0.2322762758,302,0.2607492805,302,0.1264351755,302,0.1244832799,302,0.1266453117,302,0.1226366162,302,0.1676974893,251,0.5057371259,302,0.1266453117,
301,0.08874423057,301,-0.1432952434,301,-0.01602923125,301,-0.00151896954,301,0.2310246229,301,0.2333615571,301,0.262183845,301,0.1268757582,301,0.1251954287,301,0.1283210814,301,0.1230866015,301,0.18187657,250,0.5072360635,301,0.1283210814,
300,0.09117569029,300,-0.1437078714,300,-0.01701151952,300,-0.0001197319798,300,0.2345420867,300,0.2362383902,300,0.2654423416,300,0.1295150369,300,0.1280758977,300,0.1309117973,300,0.1254431903,300,0.2000058591,249,0.5087003708,300,0.1309117973,
299,0.09278268367,299,-0.1432656497,299,-0.01687439345,299,-1.542776226E-5,299,0.2361725271,299,0.2381855696,299,0.2665580511,299,0.1315000355,299,0.1301884949,299,0.1327452809,299,0.1276078671,299,0.2188905329,248,0.5092411637,299,0.1327452809,
298,0.09532947093,298,-0.1437522322,298,-0.01677279174,298,-0.0007797098369,298,0.2383013368,298,0.2401650399,298,0.2684220672,298,0.1338057518,298,0.1324806064,298,0.1351555735,298,0.1295073926,298,0.237454772,247,0.509211123,298,0.1351555735,
297,0.09708422422,297,-0.143197149,297,-0.0165891517,297,-0.0002743563673,297,0.2401723266,297,0.2417765707,297,0.2703897059,297,0.1351694316,297,0.1336129308,297,0.137097612,297,0.1310029179,297,0.256005615,246,0.5098252892,297,0.137097612,
296,0.09958399087,296,-0.1426920891,296,-0.01602693647,296,-0.001153085614,296,0.2428196967,296,0.2437413037,296,0.2720350027,296,0.1365699768,296,0.1358463466,296,0.1394797117,296,0.1325107068,296,0.2725646496,245,0.5105081201,296,0.1394797117,
295,0.1021235809,295,-0.14328973,295,-0.01712620445,295,0.0006752164918,295,0.2457912713,295,0.2467595041,295,0.2759517133,295,0.1406493783,295,0.1388228685,295,0.1442772597,295,0.1363922954,295,0.2917194664,244,0.5120539665,295,0.1442772597,
294,0.1045713872,294,-0.143524915,294,-0.01660370268,294,-0.0003500960011,294,0.2482623458,294,0.2496650964,294,0.2775846422,294,0.142707184,294,0.1410858929,294,0.147235781,294,0.1387301236,294,0.3080964983,243,0.5131627321,294,0.147235781,
293,0.1076138616,293,-0.1436827779,293,-0.01661655866,293,-0.000239482717,293,0.2517199814,293,0.252007097,293,0.2799119353,293,0.1459208578,293,0.1442203969,293,0.1514705122,293,0.1419499964,293,0.3254471719,242,0.5148192048,293,0.1514705122,
292,0.1107067615,292,-0.1435891986,292,-0.0163196288,292,-8.945269656E-5,292,0.2545101643,292,0.2555756569,292,0.2833539844,292,0.1474965066,292,0.1465850323,292,0.1557001323,292,0.1444439143,292,0.3419466615,241,0.5174433589,292,0.1557001323,
291,0.1147815064,291,-0.143476367,291,-0.01602139696,291,-0.0003417673579,291,0.2572823763,291,0.2582036555,291,0.2858146727,291,0.1510237902,291,0.1496622413,291,0.1605675519,291,0.1467414945,291,0.358471334,240,0.5199510455,291,0.1605675519,
290,0.1178726479,290,-0.1439455003,290,-0.01659672707,290,-0.0004004783113,290,0.2610780895,290,0.2621555328,290,0.2892252803,290,0.1544642001,290,0.1526165605,290,0.1667750925,290,0.1506668478,290,0.3747260869,239,0.5230928659,290,0.1667750925,
289,0.1208708361,289,-0.1431948096,289,-0.01600009203,289,-0.0002205959609,289,0.2637119293,289,0.2647050023,289,0.2925685644,289,0.1574466825,289,0.1548559368,289,0.1741013974,289,0.1534276754,289,0.3879835308,238,0.5282979608,289,0.1741013974,
288,0.1240345016,288,-0.143254742,288,-0.01622707397,288,0.0001179783794,288,0.2676680088,288,0.2683262527,288,0.2942550778,288,0.1602781564,288,0.1585782468,288,0.1828946322,288,0.1564728618,288,0.3995189071,237,0.533731699,288,0.1828946322,
287,0.1272195727,287,-0.1428308338,287,-0.01649147086,287,0.000447876926,287,0.2704775333,287,0.2720749974,287,0.2992596328,287,0.1631637514,287,0.161692977,287,0.1930442303,287,0.1601963937,287,0.4101562798,236,0.5417033434,287,0.1930442303,
286,0.1313387752,286,-0.14228715,286,-0.01625555009,286,0.0003787732858,286,0.2732178271,286,0.2754142284,286,0.3016582131,286,0.1663052589,286,0.1645167172,286,0.2043777108,286,0.1621255428,286,0.4185270369,235,0.5522965789,286,0.2043777108,
285,0.1339300424,285,-0.1428799033,285,-0.01655023172,285,0.0002629256924,285,0.2771543264,285,0.2786319256,285,0.3059271872,285,0.1703111678,285,0.1684575826,285,0.2179729193,285,0.1662714034,285,0.4262602627,234,0.5648888946,285,0.2179729193,
284,0.1373942941,284,-0.1427605152,284,-0.01591595262,284,-0.0007346950006,284,0.2794619501,284,0.2812451124,284,0.3080255687,284,0.1725875586,284,0.1700618118,284,0.23309654,284,0.1689169258,284,0.4314377904,233,0.5795255899,284,0.23309654,
283,0.140564248,283,-0.1425419301,283,-0.01599395461,283,0.0001624648285,283,0.2829733491,283,0.2853435874,283,0.3113268912,283,0.1771258712,283,0.1747266203,283,0.2512027323,283,0.1724693924,283,0.4361644387,232,0.5970062017,283,0.2512027323,
282,0.1438613534,282,-0.1423640251,282,-0.01586419344,282,-3.344338256E-5,282,0.2858816683,282,0.2884926498,282,0.3140793741,282,0.1787206531,282,0.1774934828,282,0.2703873515,282,0.1752383113,282,0.4402607083,231,0.6167715788,282,0.2703873515,
281,0.1474002153,281,-0.1423390061,281,-0.0155952191,281,0.0004977876088,281,0.2892487943,281,0.2922990918,281,0.3174411356,281,0.1812469214,281,0.1803985983,281,0.2917907238,281,0.1779807657,281,0.4415858388,230,0.6404479146,281,0.2917907238,
280,0.1510109603,280,-0.1426404268,280,-0.01551719755,280,0.000145503509,280,0.2931719124,280,0.2946189344,280,0.3206398785,280,0.1854549646,280,0.183368504,280,0.3144304454,280,0.1814036816,280,0.4428314269,229,0.6692444086,280,0.3144304454,
279,0.154455483,279,-0.1419100463,279,-0.01501180977,279,-0.0008772172732,279,0.2956430614,279,0.2983263135,279,0.3235034049,279,0.188473776,279,0.1861914843,279,0.3380691707,279,0.1844911426,279,0.4421925247,228,0.7021385431,279,0.3380691707,
278,0.1583556533,278,-0.1419186443,278,-0.01497054752,278,-0.001004868886,278,0.2992449105,278,0.301178962,278,0.3267706037,278,0.1919185966,278,0.1899881959,278,0.3628016114,278,0.1880114079,278,0.4438205063,227,0.7419133782,278,0.3628016114,
277,0.1620980203,277,-0.1416520625,277,-0.01554387249,277,-3.784363798E-5,277,0.3034369349,277,0.3052424192,277,0.3310674727,277,0.1960455328,277,0.1941798329,277,0.3880352676,277,0.1919827014,277,0.4450024366,226,0.7891388535,277,0.3880352676,
276,0.1656205505,276,-0.1418827176,276,-0.01569929346,276,0.0001051356448,276,0.3077659607,276,0.3098333478,276,0.335352093,276,0.2001673281,276,0.1980965585,276,0.4133861661,276,0.1957609951,276,0.4450927079,225,0.8485633135,276,0.4133861661,
275,0.1699676961,275,-0.1420894414,275,-0.01536640711,275,-0.0003956161963,275,0.3113880455,275,0.3126650155,275,0.3390909433,275,0.2034548223,275,0.2018411756,275,0.4382424653,275,0.1991389543,275,0.4465124011,224,0.9190807939,275,0.4382424653,
274,0.1730108708,274,-0.142008394,274,-0.01529978961,274,0.0001334626722,274,0.315948993,274,0.3173206449,274,0.3432419598,274,0.2070093304,274,0.2052861601,274,0.4631573856,274,0.2033531964,274,0.4468304813,223,1.005391479,274,0.4631573856,
273,0.1779338568,273,-0.1421758384,273,-0.01588510908,273,0.0007353436085,273,0.319878459,273,0.3222208917,273,0.3475299776,273,0.2130510658,273,0.2113460451,273,0.4877200127,273,0.2086960822,273,0.4484994113,222,1.111014485,273,0.4877200127,
272,0.1829343587,272,-0.1418774873,272,-0.01547678187,272,0.0004817720037,272,0.325078696,272,0.3277908266,272,0.3526141047,272,0.2168281972,272,0.2150956094,272,0.5111643076,272,0.2124022394,272,0.4496756494,221,1.239561796,272,0.5111643076,
271,0.1881995499,271,-0.1419336945,271,-0.01547583286,271,0.000910820323,271,0.3297443688,271,0.3320604265,271,0.3571328223,271,0.2213285565,271,0.2198568881,271,0.5346338749,271,0.2173813432,271,0.4502912462,220,1.400917411,271,0.5346338749,
270,0.1934008449,270,-0.1422060281,270,-0.01552449074,270,0.0003152760619,270,0.3353155851,270,0.3369457126,270,0.3617485166,270,0.2266425937,270,0.2245865464,270,0.5558670163,270,0.2221931517,270,0.4517330527,,,270,0.5558670163,
269,0.1988492012,269,-0.1419948786,269,-0.01530733611,269,5.203110959E-6,269,0.3404911757,269,0.3426290452,269,0.3669853508,269,0.2319097221,269,0.230168283,269,0.5761330128,269,0.2274785489,269,0.4524256587,,,269,0.5761330128,
268,0.20462735,268,-0.1417387724,268,-0.01541167963,268,0.000394474162,268,0.3460467458,268,0.3481884301,268,0.3717924058,268,0.237062037,268,0.2351327389,268,0.5956465006,268,0.2327311486,268,0.4549678266,,,268,0.5956465006,
267,0.2104314417,267,-0.1419822723,267,-0.01570248976,267,0.0002394076437,267,0.3533361256,267,0.3547428846,267,0.3792823851,267,0.2439020425,267,0.2424043715,267,0.613150239,267,0.2391899079,267,0.4576973021,,,267,0.613150239,
266,0.2171109617,266,-0.1419593096,266,-0.01602219604,266,0.0003927123325,266,0.3604697883,266,0.3625182807,266,0.3859000206,266,0.2505921423,266,0.2488413453,266,0.6292917728,266,0.2455766946,266,0.4613122344,,,266,0.6292917728,
265,0.225696817,265,-0.1421412081,265,-0.01588670537,265,0.0004707843182,265,0.3681456149,265,0.3690371811,265,0.3939687908,265,0.2582687736,265,0.2560846806,265,0.6437218785,265,0.2534879744,265,0.4644377828,,,265,0.6437218785,
264,0.2334019244,264,-0.1421804279,264,-0.0155582577,264,-4.742050442E-5,264,0.3757689297,264,0.3772028983,264,0.4015419483,264,0.2653415501,264,0.2632829547,264,0.6566262841,264,0.2612164915,264,0.4673513472,,,264,0.6566262841,
263,0.2420124114,263,-0.1421513259,263,-0.01596386358,263,6.508220395E-5,263,0.3845471144,263,0.3855519295,263,0.4094382226,263,0.2747271657,263,0.2723877132,263,0.667955339,263,0.2694077492,263,0.4724790454,,,263,0.667955339,
262,0.2496597171,262,-0.1423891038,262,-0.01589524001,262,0.0004150726891,262,0.3927879333,262,0.3942434788,262,0.4176355302,262,0.2818759382,262,0.2803108096,262,0.6773746014,262,0.277304858,262,0.4752357304,,,262,0.6773746014,
261,0.2578957975,261,-0.1427719593,261,-0.01551005337,261,-0.000633898715,261,0.4012258351,261,0.4025017321,261,0.4256300032,261,0.2900740504,261,0.287656635,261,0.6840574145,261,0.285023272,261,0.478425324,,,261,0.6840574145,
260,0.2661519051,260,-0.1429194361,260,-0.01660883427,260,0.001160178334,260,0.4112944007,260,0.4118489623,260,0.4347214401,260,0.2993255556,260,0.296867907,260,0.6902579069,260,0.2947848737,260,0.4824136794,,,260,0.6902579069,
259,0.2741556764,259,-0.142810002,259,-0.01589409262,259,-0.0001544599945,259,0.4182105362,259,0.4183557034,259,0.4427532256,259,0.306622833,259,0.3041365445,259,0.6938824654,259,0.3017786741,259,0.4835965931,,,259,0.6938824654,
258,0.2819462717,258,-0.1429517716,258,-0.01640019938,258,0.0005323604564,258,0.426247865,258,0.4267276525,258,0.4506623149,258,0.3153502345,258,0.3127275705,258,0.6970282197,258,0.3099932671,258,0.4868120551,,,258,0.6970282197,
257,0.2905462682,257,-0.1422000229,257,-0.01626243256,257,-0.0001559608354,257,0.4347793162,257,0.4349027872,257,0.4587496519,257,0.3228069842,257,0.3208037615,257,0.6982837319,257,0.3178154528,257,0.4894365072,,,257,0.6982837319,
256,0.2986608744,256,-0.1429908425,256,-0.0168535281,256,0.0002369730209,256,0.4437068403,256,0.4438266158,256,0.4678789079,256,0.3315427601,256,0.3286478817,256,0.6999316216,256,0.3253308535,256,0.4919294715,,,256,0.6999316216,
255,0.3072898686,255,-0.1431768239,255,-0.01721060649,255,0.0006730387104,255,0.4522576928,255,0.4525980353,255,0.4774528444,255,0.3410177827,255,0.3383969069,255,0.6999659538,255,0.3355606198,255,0.4951189756,,,255,0.6999659538,
254,0.315561831,254,-0.1434774101,254,-0.01735065877,254,0.00032092334,254,0.4614079893,254,0.462639004,254,0.4867457151,254,0.3495748639,254,0.3470618427,254,0.7002850771,254,0.3442539871,254,0.4980762899,,,254,0.7002850771,
253,0.3247191906,253,-0.1432765126,253,-0.01745316945,253,0.0005175875849,253,0.4703316987,253,0.4717780948,253,0.4952599108,253,0.3594391346,253,0.3570349514,253,0.7000368237,253,0.353279382,253,0.5014455914,,,253,0.7000368237,
252,0.3342928886,252,-0.1435199231,252,-0.01724991575,252,-0.0001390371617,252,0.4787442088,252,0.4799092114,252,0.5034790039,252,0.3671343029,252,0.3648633063,252,0.6991463304,252,0.3621346951,252,0.5035951734,,,252,0.6991463304,
251,0.3430208862,251,-0.1436874568,251,-0.0177005697,251,-0.0002046580048,251,0.4876123369,251,0.4892817736,251,0.5125026107,251,0.3761026561,251,0.3739104271,251,0.6995589733,251,0.3700860739,251,0.5061068535,,,251,0.6995589733,
250,0.3501476943,250,-0.144711569,250,-0.0178816542,250,0.0004211617634,250,0.4951606989,250,0.4968402684,250,0.5210348964,250,0.383983314,250,0.3814661503,250,0.6984305382,250,0.3777791858,250,0.5086091161,,,250,0.6984305382,
249,0.3570821285,249,-0.1445639282,249,-0.01805620641,249,-1.118259479E-5,249,0.5020199418,249,0.5042202473,249,0.5276294351,249,0.3902821541,249,0.3877546489,249,0.6967406273,249,0.385029763,249,0.509144783,,,249,0.6967406273,
248,0.3627337515,248,-0.1445469558,248,-0.01826916076,248,-0.0001970510493,248,0.5073609352,248,0.5096837878,248,0.5325841904,248,0.396589011,248,0.393899858,248,0.6950720549,248,0.3902944326,248,0.5095465779,,,248,0.6950720549,
247,0.3676267862,247,-0.1448922455,247,-0.01863797382,247,0.0002812126477,247,0.5126505494,247,0.5152227283,247,0.5387995243,247,0.4019015729,247,0.3990590274,247,0.6950439215,247,0.3957181573,247,0.5098925233,,,247,0.6950439215,
246,0.3725861311,246,-0.1452634335,246,-0.01869689114,246,0.0003029455838,246,0.517601192,246,0.5203993917,246,0.5437113643,246,0.4066215158,246,0.4034809768,246,0.6941083074,246,0.3998538256,246,0.509753108,,,246,0.6941083074,
245,0.377025187,245,-0.1454125047,245,-0.01918151602,245,-0.0001525968546,245,0.52256459,245,0.524740696,245,0.5492442846,245,0.4117596745,245,0.4089016914,245,0.6954557896,245,0.4053716362,245,0.5109760165,,,245,0.6954557896,
244,0.3805033863,244,-0.1458700597,244,-0.01979734376,244,0.0002441733086,244,0.5272356868,244,0.5302801728,244,0.5540795922,244,0.4166688621,244,0.4132859111,244,0.6969980597,244,0.409537971,244,0.5122696757,,,244,0.6969980597,
243,0.3852993846,243,-0.1463979781,243,-0.01971042529,243,7.758717402E-5,243,0.5307986736,243,0.5333040357,243,0.5572804809,243,0.4211033583,243,0.4171521664,243,0.699518621,243,0.4130957127,243,0.5138522983,,,243,0.699518621,
242,0.388258189,242,-0.1466304362,242,-0.02028731443,242,0.0001576482755,242,0.5355473161,242,0.5377454758,242,0.5614486933,242,0.4238992035,242,0.4205703437,242,0.7026435137,242,0.4170586765,242,0.5158675313,,,242,0.7026435137,
241,0.3909446001,241,-0.1463352144,241,-0.02054159716,241,0.0001534532348,241,0.5377386808,241,0.5408906341,241,0.56436342,241,0.4263396263,241,0.4231778383,241,0.7061553001,241,0.4193749428,241,0.5175738931,,,241,0.7061553001,
240,0.3927276433,240,-0.1477610916,240,-0.02087093703,240,9.819657862E-5,240,0.5404466391,240,0.5428009033,240,0.5660715103,240,0.4287485182,240,0.4257837832,240,0.711042285,240,0.4219217896,240,0.5204786658,,,240,0.711042285,
239,0.3940469623,239,-0.1476479471,239,-0.02114776149,239,-4.964644904E-5,239,0.5414338112,239,0.5445745587,239,0.5676960349,239,0.4303441346,239,0.4282603264,239,0.7163253427,239,0.4236742258,239,0.5233647823,,,239,0.7163253427,
238,0.3951060474,238,-0.1479131877,238,-0.02169797383,238,0.0004097092024,238,0.5437204242,238,0.5454503298,238,0.5688713193,238,0.4322283864,238,0.4288590848,238,0.7230716944,238,0.4254340231,238,0.5290051699,,,238,0.7230716944,
237,0.3958716094,237,-0.1479672045,237,-0.02218487114,237,0.0008689287351,237,0.5444294214,237,0.5471707582,237,0.5713024735,237,0.4332368374,237,0.4305762053,237,0.7312003374,237,0.4263646901,237,0.5347942114,,,237,0.7312003374,
236,0.3964139819,236,-0.148315087,236,-0.0223451145,236,0.0004332105746,236,0.5460565686,236,0.5484216213,236,0.5720966458,236,0.4350588322,236,0.4313283563,236,0.7397215962,236,0.4268593192,236,0.5428747535,,,236,0.7397215962,
235,0.3977221549,235,-0.1493069232,235,-0.02323933505,235,0.0002359629143,235,0.5477600098,235,0.5498633385,235,0.5749087334,235,0.4377762079,235,0.4336722493,235,0.7509304881,235,0.4293777049,235,0.5530699492,,,235,0.7509304881,
234,0.3987684548,234,-0.1500900239,234,-0.02370034158,234,2.254726314E-5,234,0.5496478677,234,0.5523463488,234,0.5773431659,234,0.4399021864,234,0.4362649322,234,0.7638127208,234,0.4316993952,234,0.5654385686,,,234,0.7638127208,
233,0.4011986256,233,-0.150661692,233,-0.02457568422,233,0.0002065155713,233,0.552270472,233,0.5549874902,233,0.580367744,233,0.4440819919,233,0.4402238429,233,0.7784675956,233,0.4352990985,233,0.580861032,,,233,0.7784675956,
232,0.4038152099,232,-0.1519367248,232,-0.02495012991,232,-0.0006418598932,232,0.5561932921,232,0.5585533977,232,0.5837077498,232,0.447763741,232,0.4434954822,232,0.7942394614,232,0.4388950467,232,0.5978804827,,,232,0.7942394614,
231,0.4085847735,231,-0.1524569541,231,-0.02587998472,231,-4.415921649E-5,231,0.5612154603,231,0.5629464388,231,0.5898784995,231,0.4538778961,231,0.4496108592,231,0.8131764531,231,0.4446735382,231,0.6177876592,,,231,0.8131764531,
230,0.4132704139,230,-0.1538742036,230,-0.0271585919,230,0.0004419688485,230,0.5681732297,230,0.5709177256,230,0.5980822444,230,0.4628885686,230,0.4587215483,230,0.8352671862,230,0.4537194669,230,0.6418156624,,,230,0.8352671862,
229,0.4225308299,229,-0.1550102085,229,-0.02835891023,229,0.0004681670107,229,0.5781068206,229,0.5802952051,229,0.6099057198,229,0.4757512808,229,0.4711267948,229,0.8612189889,229,0.4658175409,229,0.670260787,,,229,0.8612189889,
228,0.4336678684,228,-0.1557263136,228,-0.02955480665,228,0.0002865745337,228,0.5912441611,228,0.5934234262,228,0.6249642372,228,0.4927231073,228,0.4877458215,228,0.8916565776,228,0.4818630815,228,0.7042024136,,,228,0.8916565776,
227,0.4498927891,227,-0.1566836536,227,-0.03049291298,227,1.408219487E-5,227,0.608182013,227,0.6109399796,227,0.6455324292,227,0.5147104263,227,0.510201633,227,0.9256355762,227,0.5036996603,227,0.7434870005,,,227,0.9256355762,
226,0.4710801542,226,-0.1579652727,226,-0.031533923,226,0.0003473214456,226,0.6305509806,226,0.6330379844,226,0.6730415225,226,0.5452985764,226,0.5403835773,226,0.9681767821,226,0.5330706835,226,0.7921341658,,,226,0.9681767821,
225,0.4987635016,225,-0.1593660414,225,-0.0331518352,225,0.0005084131262,225,0.6608684659,225,0.6627136469,225,0.7096369267,225,0.5875378847,225,0.5811858177,225,1.020739913,225,0.5734568834,225,0.8503729105,,,225,1.020739913,
224,0.5349584818,224,-0.1610737741,224,-0.03450049087,224,-0.0004159435921,224,0.6979992986,224,0.7015317678,224,0.7555103898,224,0.6421874762,224,0.6356168389,224,1.085104465,224,0.6267712116,224,0.9216153026,,,224,1.085104465,
223,0.5809103847,223,-0.1629008949,223,-0.03636940941,223,-8.44835813E-5,223,0.7464005351,223,0.7499912977,223,0.8160762191,223,0.7138258219,223,0.7072923779,223,1.165216327,223,0.6977108717,223,1.008694649,,,223,1.165216327,
222,0.6369630694,222,-0.1645971537,222,-0.03799278289,222,-0.000162999233,222,0.8051022887,222,0.8088234067,222,0.8903416991,222,0.8058345914,222,0.7980346084,222,1.265227914,222,0.7878206968,222,1.114847183,,,222,1.265227914,
221,0.7060118914,221,-0.1668820977,221,-0.03959517553,221,-0.0007075081812,221,0.8765690923,221,0.8792033792,221,0.9825922847,221,0.9232066274,221,0.9155713916,221,1.390537381,221,0.9037568569,221,1.244761705,,,221,1.390537381,
220,0.7881169915,220,-0.1686721742,220,-0.04133428261,220,-0.0004435107403,220,0.9610514045,220,0.9634272456,220,1.094921589,220,1.072844148,220,1.066492677,220,1.547276378,220,1.052876353,220,1.406159043,,,220,1.547276378,
219,0.8837247491,219,-0.1705795079,219,-0.0436305739,219,-0.000982606085,219,1.059057474,219,1.061705112,219,1.228667736,219,1.263246417,219,1.255568862,219,1.744824886,219,1.242205739,219,1.60505569,,,219,1.744824886,
218,0.9928221703,218,-0.1720598042,218,-0.04526985809,218,-0.000822446309,218,1.172178984,218,1.175406694,218,1.379665494,218,1.499875307,218,1.494933367,218,1.987360597,218,1.47914362,218,1.846333623,,,218,1.987360597,
217,1.115062356,217,-0.1740163714,217,-0.04738907889,217,-0.0004060127831,217,1.296662927,217,1.300482988,217,1.544869423,217,1.788334846,217,1.782476902,217,2.2779212,217,1.767824888,217,2.136823893,,,217,2.2779212,
216,1.247949123,216,-0.1755175292,216,-0.04901916534,216,-0.000618079328,216,1.432023287,216,1.433797359,216,1.714171529,216,2.126265049,216,2.121065378,216,2.621134996,216,2.10457468,216,2.473798752,,,216,2.621134996,
215,1.391035199,215,-0.1780730784,215,-0.05151137337,215,-0.000270527642,215,1.576007962,215,1.578717709,215,1.886504054,215,2.502294779,215,2.501804352,215,2.989559174,215,2.485820293,215,2.843247652,,,215,2.989559174,
214,1.541313171,214,-0.1804431081,214,-0.05382482708,214,-0.0005240815808,214,1.728797317,214,1.732606769,214,2.052261114,214,2.862566471,214,2.868110657,214,3.356005192,214,2.861301184,214,3.193991184,,,214,3.356005192,
213,1.700740576,213,-0.1824420542,213,-0.05617934093,213,-0.0001201460473,213,1.89312911,213,1.892885089,213,2.216212988,213,3.151143789,213,3.158890009,213,3.600560904,213,3.159254313,213,3.473605871,,,213,3.600560904,
212,1.863653421,212,-0.1850761175,212,-0.05705777183,212,-0.001473360579,212,2.059123039,212,2.061770678,212,2.384427071,212,3.364934921,212,3.371464252,212,3.767750978,212,3.390771627,212,3.651026011,,,212,3.767750978,
211,2.042871475,211,-0.1869429052,211,-0.05999167264,211,-0.0001499056525,211,2.23730731,211,2.237171173,211,2.561861753,211,3.513810873,211,3.508128405,211,3.931720972,211,3.554907322,211,3.808360338,,,211,3.931720972,
210,2.225392818,210,-0.1892662793,210,-0.06195128709,210,-0.0006184928934,210,2.423500061,210,2.425575256,210,2.751979589,210,3.636859417,210,3.650574207,210,4.058246136,210,3.717419386,210,3.936961651,,,210,4.058246136,
209,2.421839952,209,-0.1906519234,209,-0.06431290507,209,-0.0005528311594,209,2.620671988,209,2.616463423,209,2.93604064,209,3.811684847,209,3.798114061,209,4.15542078,209,3.852469444,209,4.061200619,,,209,4.15542078,
208,2.622760057,208,-0.192844525,208,-0.06652975082,208,-0.0008402218227,208,2.825902939,208,2.830672979,208,3.13832283,208,3.960711002,208,3.943366766,208,4.332858562,208,3.99686408,208,4.228292942,,,208,4.332858562,
207,2.844904423,207,-0.1955776066,207,-0.0692140907,207,-0.0001987587457,207,3.040281296,207,3.055393696,207,3.378073215,207,4.142518997,207,4.210618496,207,4.652019024,207,4.1171422,207,4.475530148,,,207,4.652019024,
206,3.043494225,206,-0.197127372,206,-0.07125940174,206,-0.0005395424669,206,3.267984152,206,3.257024288,206,3.554791689,206,4.235179424,206,4.198673725,206,4.493403912,206,4.210648537,206,4.445003986,,,206,4.493403912,
205,3.281760454,205,-0.2000608891,205,-0.07375498116,205,-7.578750228E-5,205,3.511031389,205,3.476770401,205,3.798279285,205,4.34595871,205,4.342470646,205,4.584960461,205,4.488024235,205,4.513615608,,,205,4.584960461,
204,3.504228115,204,-0.2019673884,204,-0.07540560514,204,1.126054212E-5,204,3.693066835,204,3.698461056,204,4.002052307,204,4.454154015,204,4.463832378,204,4.703736305,204,4.503338814,204,4.721979618,,,204,4.703736305,
203,3.702256203,203,-0.2043979466,203,-0.07801798731,203,-0.0002277368039,203,3.928533077,203,3.931609154,203,4.204216957,203,4.519409657,203,4.552807331,203,4.736837864,203,4.512935162,203,4.769987583,,,203,4.736837864,
202,3.898509026,202,-0.2058237195,202,-0.08013574779,202,0.0001422149071,202,4.09554863,202,4.144236088,202,4.383720398,202,4.61224699,202,4.63528204,202,4.826290131,202,4.602911949,202,4.683593273,,,202,4.826290131,
201,4.008768559,201,-0.207327649,201,-0.08078233153,201,-0.0004613534547,201,4.286261559,201,4.239280701,201,4.527199268,201,4.617525101,201,4.625815868,201,4.832685471,201,4.598044872,201,4.749936104,,,201,4.832685471,
200,4.171953678,200,-0.2091358304,200,-0.08280344307,200,0.0004921380314,200,4.37398243,200,4.3478899,200,4.494711399,200,4.534608364,200,4.657140732,200,4.686030865,200,4.616683483,200,4.76870203,,,200,4.686030865,

cuvette empty,
cuvette empty
Collection Time: 13/05/2024 1:24:18 PM
Operator Name  :
Scan Software Version: 3.00(182)
Parameter List :
Instrument                        Cary 300
Instrument Version                9.00
Start (nm)                        400.00
Stop (nm)                         200.00
X Mode                            Nanometers
Y Mode                            Abs
UV-Vis Scan Rate (nm/min)         600.000
UV-Vis Data Interval (nm)         1.000
UV-Vis Ave. Time (sec)            0.100
UV-Vis SBW (nm)                   2.0
Beam Mode                         Double
Signal-to-noise Mode              Off
UV Source                         On
Vis Source                        On
Source Changeover (nm)            350.00
Baseline Correction               Off
Cycle Mode                        Off
Comments
Method Log     :
Method Name    : E:\Dokumente und Einstellungen\Cary\Robert_RTG\2024-05-13-RTG1.MSW
Date/Time stamp: 13/05/2024 1:22:44 PM
Method Modifications:
Saved as E:\Dokumente und Einstellungen\Cary\Robert_RTG\2024-05-13-RTG1.MSW
End Method Modifications
<SBW (nm)> , 2.00
<Energy> , 170.00
<Current Wavelength> , 206.33

air,
air
Collection Time: 13/05/2024 1:25:12 PM
Operator Name  :
Scan Software Version: 3.00(182)
Parameter List :
Instrument                        Cary 300
Instrument Version                9.00
Start (nm)                        400.00
Stop (nm)                         200.00
X Mode                            Nanometers
Y Mode                            Abs
UV-Vis Scan Rate (nm/min)         600.000
UV-Vis Data Interval (nm)         1.000
UV-Vis Ave. Time (sec)            0.100
UV-Vis SBW (nm)                   2.0
Beam Mode                         Double
Signal-to-noise Mode              Off
UV Source                         On
Vis Source                        On
Source Changeover (nm)            350.00
Baseline Correction               Off
Cycle Mode                        Off
Comments
Method Log     :
Method Name    : E:\Dokumente und Einstellungen\Cary\Robert_RTG\2024-05-13-RTG1.MSW
Date/Time stamp: 13/05/2024 1:22:44 PM
Method Modifications:
Saved as E:\Dokumente und Einstellungen\Cary\Robert_RTG\2024-05-13-RTG1.MSW
End Method Modifications
<SBW (nm)> , 2.00
<Energy> , 170.00
<Current Wavelength> , 201.33

Baseline 100%T,
Baseline 100%T
Collection Time: 13/05/2024 1:26:29 PM
Operator Name  :
Scan Software Version: 3.00(182)
Parameter List :
Instrument                        Cary 300
Instrument Version                9.00
Start (nm)                        400.00
Stop (nm)                         200.00
X Mode                            Nanometers
Y Mode                            Abs
UV-Vis Scan Rate (nm/min)         600.000
UV-Vis Data Interval (nm)         1.000
UV-Vis Ave. Time (sec)            0.100
UV-Vis SBW (nm)                   2.0
Beam Mode                         Double
Signal-to-noise Mode              Off
UV Source                         On
Vis Source                        On
Source Changeover (nm)            350.00
Baseline Correction               On
Baseline Type                     Baseline correction
Baseline File Name
Baseline Std Ref File Name
Cycle Mode                        Off
Comments
Method Log     :
Method Name    : E:\Dokumente und Einstellungen\Cary\Robert_RTG\2024-05-13-RTG1.MSW
Date/Time stamp: 13/05/2024 1:22:44 PM
Method Modifications:
Saved as E:\Dokumente und Einstellungen\Cary\Robert_RTG\2024-05-13-RTG1.MSW
Baseline Correction Changed: 13/05/2024 1:26:23 PM, Old:0, New:1
End Method Modifications
<SBW (nm)> , 2.00
<Energy> , 170.00
<Current Wavelength> , 206.33

air#,
air#
Collection Time: 13/05/2024 1:27:12 PM
Operator Name  :
Scan Software Version: 3.00(182)
Parameter List :
Instrument                        Cary 300
Instrument Version                9.00
Start (nm)                        400.00
Stop (nm)                         200.00
X Mode                            Nanometers
Y Mode                            Abs
UV-Vis Scan Rate (nm/min)         600.000
UV-Vis Data Interval (nm)         1.000
UV-Vis Ave. Time (sec)            0.100
UV-Vis SBW (nm)                   2.0
Beam Mode                         Double
Signal-to-noise Mode              Off
UV Source                         On
Vis Source                        On
Source Changeover (nm)            350.00
Baseline Correction               On
Baseline Type                     Baseline correction
Baseline File Name
Baseline Std Ref File Name
Cycle Mode                        Off
Comments
Method Log     :
Method Name    : E:\Dokumente und Einstellungen\Cary\Robert_RTG\2024-05-13-RTG1.MSW
Date/Time stamp: 13/05/2024 1:22:44 PM
Method Modifications:
Saved as E:\Dokumente und Einstellungen\Cary\Robert_RTG\2024-05-13-RTG1.MSW
Baseline Correction Changed: 13/05/2024 1:26:23 PM, Old:0, New:1
End Method Modifications
<SBW (nm)> , 2.00
<Energy> , 170.00
<Current Wavelength> , 201.33

empty cuvette against air,
empty cuvette against air
Collection Time: 13/05/2024 1:28:10 PM
Operator Name  :
Scan Software Version: 3.00(182)
Parameter List :
Instrument                        Cary 300
Instrument Version                9.00
Start (nm)                        400.00
Stop (nm)                         200.00
X Mode                            Nanometers
Y Mode                            Abs
UV-Vis Scan Rate (nm/min)         600.000
UV-Vis Data Interval (nm)         1.000
UV-Vis Ave. Time (sec)            0.100
UV-Vis SBW (nm)                   2.0
Beam Mode                         Double
Signal-to-noise Mode              Off
UV Source                         On
Vis Source                        On
Source Changeover (nm)            350.00
Baseline Correction               On
Baseline Type                     Baseline correction
Baseline File Name
Baseline Std Ref File Name
Cycle Mode                        Off
Comments
Method Log     :
Method Name    : E:\Dokumente und Einstellungen\Cary\Robert_RTG\2024-05-13-RTG1.MSW
Date/Time stamp: 13/05/2024 1:22:44 PM
Method Modifications:
Saved as E:\Dokumente und Einstellungen\Cary\Robert_RTG\2024-05-13-RTG1.MSW
Baseline Correction Changed: 13/05/2024 1:26:23 PM, Old:0, New:1
End Method Modifications
<SBW (nm)> , 2.00
<Energy> , 172.00
<Current Wavelength> , 200.00

70uL naoh x5 in cuvette against air1,
70uL naoh x5 in cuvette against air1
Collection Time: 13/05/2024 1:31:13 PM
Operator Name  :
Scan Software Version: 3.00(182)
Parameter List :
Instrument                        Cary 300
Instrument Version                9.00
Start (nm)                        400.00
Stop (nm)                         200.00
X Mode                            Nanometers
Y Mode                            Abs
UV-Vis Scan Rate (nm/min)         600.000
UV-Vis Data Interval (nm)         1.000
UV-Vis Ave. Time (sec)            0.100
UV-Vis SBW (nm)                   2.0
Beam Mode                         Double
Signal-to-noise Mode              Off
UV Source                         On
Vis Source                        On
Source Changeover (nm)            350.00
Baseline Correction               On
Baseline Type                     Baseline correction
Baseline File Name
Baseline Std Ref File Name
Cycle Mode                        Off
Comments
Method Log     :
Method Name    : E:\Dokumente und Einstellungen\Cary\Robert_RTG\2024-05-13-RTG1.MSW
Date/Time stamp: 13/05/2024 1:22:44 PM
Method Modifications:
Saved as E:\Dokumente und Einstellungen\Cary\Robert_RTG\2024-05-13-RTG1.MSW
Baseline Correction Changed: 13/05/2024 1:26:23 PM, Old:0, New:1
End Method Modifications
<SBW (nm)> , 2.00
<Energy> , 170.00
<Current Wavelength> , 208.00

200uL naoh x5 in cuvette against air2,
200uL naoh x5 in cuvette against air2
Collection Time: 13/05/2024 1:32:19 PM
Operator Name  :
Scan Software Version: 3.00(182)
Parameter List :
Instrument                        Cary 300
Instrument Version                9.00
Start (nm)                        400.00
Stop (nm)                         200.00
X Mode                            Nanometers
Y Mode                            Abs
UV-Vis Scan Rate (nm/min)         600.000
UV-Vis Data Interval (nm)         1.000
UV-Vis Ave. Time (sec)            0.100
UV-Vis SBW (nm)                   2.0
Beam Mode                         Double
Signal-to-noise Mode              Off
UV Source                         On
Vis Source                        On
Source Changeover (nm)            350.00
Baseline Correction               On
Baseline Type                     Baseline correction
Baseline File Name
Baseline Std Ref File Name
Cycle Mode                        Off
Comments
Method Log     :
Method Name    : E:\Dokumente und Einstellungen\Cary\Robert_RTG\2024-05-13-RTG1.MSW
Date/Time stamp: 13/05/2024 1:22:44 PM
Method Modifications:
Saved as E:\Dokumente und Einstellungen\Cary\Robert_RTG\2024-05-13-RTG1.MSW
Baseline Correction Changed: 13/05/2024 1:26:23 PM, Old:0, New:1
End Method Modifications
<SBW (nm)> , 2.00
<Energy> , 170.00
<Current Wavelength> , 206.33

300uL naoh x5 in cuvette against air3,
300uL naoh x5 in cuvette against air3
Collection Time: 13/05/2024 1:33:17 PM
Operator Name  :
Scan Software Version: 3.00(182)
Parameter List :
Instrument                        Cary 300
Instrument Version                9.00
Start (nm)                        400.00
Stop (nm)                         200.00
X Mode                            Nanometers
Y Mode                            Abs
UV-Vis Scan Rate (nm/min)         600.000
UV-Vis Data Interval (nm)         1.000
UV-Vis Ave. Time (sec)            0.100
UV-Vis SBW (nm)                   2.0
Beam Mode                         Double
Signal-to-noise Mode              Off
UV Source                         On
Vis Source                        On
Source Changeover (nm)            350.00
Baseline Correction               On
Baseline Type                     Baseline correction
Baseline File Name
Baseline Std Ref File Name
Cycle Mode                        Off
Comments
Method Log     :
Method Name    : E:\Dokumente und Einstellungen\Cary\Robert_RTG\2024-05-13-RTG1.MSW
Date/Time stamp: 13/05/2024 1:22:44 PM
Method Modifications:
Saved as E:\Dokumente und Einstellungen\Cary\Robert_RTG\2024-05-13-RTG1.MSW
Baseline Correction Changed: 13/05/2024 1:26:23 PM, Old:0, New:1
End Method Modifications
<SBW (nm)> , 2.00
<Energy> , 170.00
<Current Wavelength> , 200.00

600uL naoh x5 in cuvette against air4,
600uL naoh x5 in cuvette against air4
Collection Time: 13/05/2024 1:34:16 PM
Operator Name  :
Scan Software Version: 3.00(182)
Parameter List :
Instrument                        Cary 300
Instrument Version                9.00
Start (nm)                        400.00
Stop (nm)                         200.00
X Mode                            Nanometers
Y Mode                            Abs
UV-Vis Scan Rate (nm/min)         600.000
UV-Vis Data Interval (nm)         1.000
UV-Vis Ave. Time (sec)            0.100
UV-Vis SBW (nm)                   2.0
Beam Mode                         Double
Signal-to-noise Mode              Off
UV Source                         On
Vis Source                        On
Source Changeover (nm)            350.00
Baseline Correction               On
Baseline Type                     Baseline correction
Baseline File Name
Baseline Std Ref File Name
Cycle Mode                        Off
Comments
Method Log     :
Method Name    : E:\Dokumente und Einstellungen\Cary\Robert_RTG\2024-05-13-RTG1.MSW
Date/Time stamp: 13/05/2024 1:22:44 PM
Method Modifications:
Saved as E:\Dokumente und Einstellungen\Cary\Robert_RTG\2024-05-13-RTG1.MSW
Baseline Correction Changed: 13/05/2024 1:26:23 PM, Old:0, New:1
End Method Modifications
<SBW (nm)> , 2.00
<Energy> , 170.00
<Current Wavelength> , 200.00

3ul x24 urd in 600uL naoh x5 in cuvette against air5,
3ul x24 urd in 600uL naoh x5 in cuvette against air5
Collection Time: 13/05/2024 1:36:20 PM
Operator Name  :
Scan Software Version: 3.00(182)
Parameter List :
Instrument                        Cary 300
Instrument Version                9.00
Start (nm)                        400.00
Stop (nm)                         200.00
X Mode                            Nanometers
Y Mode                            Abs
UV-Vis Scan Rate (nm/min)         600.000
UV-Vis Data Interval (nm)         1.000
UV-Vis Ave. Time (sec)            0.100
UV-Vis SBW (nm)                   2.0
Beam Mode                         Double
Signal-to-noise Mode              Off
UV Source                         On
Vis Source                        On
Source Changeover (nm)            350.00
Baseline Correction               On
Baseline Type                     Baseline correction
Baseline File Name
Baseline Std Ref File Name
Cycle Mode                        Off
Comments
Method Log     :
Method Name    : E:\Dokumente und Einstellungen\Cary\Robert_RTG\2024-05-13-RTG1.MSW
Date/Time stamp: 13/05/2024 1:22:44 PM
Method Modifications:
Saved as E:\Dokumente und Einstellungen\Cary\Robert_RTG\2024-05-13-RTG1.MSW
Baseline Correction Changed: 13/05/2024 1:26:23 PM, Old:0, New:1
End Method Modifications
<SBW (nm)> , 2.00
<Energy> , 170.00
<Current Wavelength> , 200.00

500uL naoh x5 in cuvette against air,
500uL naoh x5 in cuvette against air
Collection Time: 13/05/2024 1:39:28 PM
Operator Name  :
Scan Software Version: 3.00(182)
Parameter List :
Instrument                        Cary 300
Instrument Version                9.00
Start (nm)                        400.00
Stop (nm)                         200.00
X Mode                            Nanometers
Y Mode                            Abs
UV-Vis Scan Rate (nm/min)         600.000
UV-Vis Data Interval (nm)         1.000
UV-Vis Ave. Time (sec)            0.100
UV-Vis SBW (nm)                   2.0
Beam Mode                         Double
Signal-to-noise Mode              Off
UV Source                         On
Vis Source                        On
Source Changeover (nm)            350.00
Baseline Correction               On
Baseline Type                     Baseline correction
Baseline File Name
Baseline Std Ref File Name
Cycle Mode                        Off
Comments
Method Log     :
Method Name    : E:\Dokumente und Einstellungen\Cary\Robert_RTG\2024-05-13-RTG1.MSW
Date/Time stamp: 13/05/2024 1:22:44 PM
Method Modifications:
Saved as E:\Dokumente und Einstellungen\Cary\Robert_RTG\2024-05-13-RTG1.MSW
Baseline Correction Changed: 13/05/2024 1:26:23 PM, Old:0, New:1
End Method Modifications
<SBW (nm)> , 2.00
<Energy> , 172.00
<Current Wavelength> , 200.00

3ul x25 ura in 500uL naoh x5 in cuvette against air1,
3ul x25 ura in 500uL naoh x5 in cuvette against air1
Collection Time: 13/05/2024 1:41:39 PM
Operator Name  :
Scan Software Version: 3.00(182)
Parameter List :
Instrument                        Cary 300
Instrument Version                9.00
Start (nm)                        400.00
Stop (nm)                         200.00
X Mode                            Nanometers
Y Mode                            Abs
UV-Vis Scan Rate (nm/min)         600.000
UV-Vis Data Interval (nm)         1.000
UV-Vis Ave. Time (sec)            0.100
UV-Vis SBW (nm)                   2.0
Beam Mode                         Double
Signal-to-noise Mode              Off
UV Source                         On
Vis Source                        On
Source Changeover (nm)            350.00
Baseline Correction               On
Baseline Type                     Baseline correction
Baseline File Name
Baseline Std Ref File Name
Cycle Mode                        Off
Comments
Method Log     :
Method Name    : E:\Dokumente und Einstellungen\Cary\Robert_RTG\2024-05-13-RTG1.MSW
Date/Time stamp: 13/05/2024 1:22:44 PM
Method Modifications:
Saved as E:\Dokumente und Einstellungen\Cary\Robert_RTG\2024-05-13-RTG1.MSW
Baseline Correction Changed: 13/05/2024 1:26:23 PM, Old:0, New:1
End Method Modifications
<SBW (nm)> , 2.00
<Energy> , 170.00
<Current Wavelength> , 208.00

3ul x25 ura in 500uL naoh x5 in cuvette against air2,
3ul x25 ura in 500uL naoh x5 in cuvette against air2
Collection Time: 13/05/2024 1:44:01 PM
Operator Name  :
Scan Software Version: 3.00(182)
Parameter List :
Instrument                        Cary 300
Instrument Version                9.00
Start (nm)                        349.00
Stop (nm)                         220.00
X Mode                            Nanometers
Y Mode                            Abs
UV-Vis Scan Rate (nm/min)         600.000
UV-Vis Data Interval (nm)         1.000
UV-Vis Ave. Time (sec)            0.100
UV-Vis SBW (nm)                   2.0
Beam Mode                         Double
Signal-to-noise Mode              Off
UV Source                         On
Vis Source                        On
Source Changeover (nm)            350.00
Baseline Correction               On
Baseline Type                     Baseline correction
Baseline File Name                E:\Dokumente und Einstellungen\Cary\Robert_RTG\2024-05-13-RTG-standard.MSW
Baseline Std Ref File Name
Cycle Mode                        Off
Comments
Method Log     :
Method Name    : E:\Dokumente und Einstellungen\Cary\Robert_RTG\2024-05-13-RTG-standard.MSW
Date/Time stamp: 13/05/2024 1:43:10 PM
Method Modifications:
Baseline Correction Changed: 13/05/2024 1:26:23 PM, Old:0, New:1
Autoconvert Changed: 13/05/2024 1:42:59 PM, Old:None, New:Ascii with Log
Saved as E:\Dokumente und Einstellungen\Cary\Robert_RTG\2024-05-13-RTG-standard.MSW
End Method Modifications
<SBW (nm)> , 2.00
<Energy> , 160.00
<Current Wavelength> , 220.00

3ul x24 urd in 600uL naoh x5 in cuvette against air5,
3ul x24 urd in 600uL naoh x5 in cuvette against air5
Collection Time: 13/05/2024 1:36:20 PM
Operator Name  :
Scan Software Version: 3.00(182)
Parameter List :
Instrument                        Cary 300
Instrument Version                9.00
Start (nm)                        400.00
Stop (nm)                         200.00
X Mode                            Nanometers
Y Mode                            Abs
UV-Vis Scan Rate (nm/min)         600.000
UV-Vis Data Interval (nm)         1.000
UV-Vis Ave. Time (sec)            0.100
UV-Vis SBW (nm)                   2.0
Beam Mode                         Double
Signal-to-noise Mode              Off
UV Source                         On
Vis Source                        On
Source Changeover (nm)            350.00
Baseline Correction               On
Baseline Type                     Baseline correction
Baseline File Name
Baseline Std Ref File Name
Cycle Mode                        Off
Comments
Method Log     :
Method Name    : E:\Dokumente und Einstellungen\Cary\Robert_RTG\2024-05-13-RTG1.MSW
Date/Time stamp: 13/05/2024 1:22:44 PM
Method Modifications:
Saved as E:\Dokumente und Einstellungen\Cary\Robert_RTG\2024-05-13-RTG1.MSW
Baseline Correction Changed: 13/05/2024 1:26:23 PM, Old:0, New:1
End Method Modifications
<SBW (nm)> , 2.00
<Energy> , 170.00
<Current Wavelength> , 200.00

